# Phase 2: Two-phase separation (prepare + layout)
# token_idx | text_len | height_px | prepare_ms | layout_ms | total_ms
1 4 19.2 0.002600 0.000300 0.002900
2 10 19.2 0.003000 0.000100 0.003100
3 16 19.2 0.001500 0.000100 0.001600
4 20 19.2 0.001500 0.000200 0.001700
5 26 19.2 0.001500 0.000100 0.001600
6 31 19.2 0.001300 0.000200 0.001500
7 35 19.2 0.001700 0.000200 0.001900
8 40 19.2 0.001300 0.000200 0.001500
9 44 19.2 0.000900 0.000200 0.001100
10 46 19.2 0.000300 0.000300 0.000600
11 51 19.2 0.001200 0.000300 0.001500
12 54 19.2 0.000600 0.000300 0.000900
13 56 19.2 0.000300 0.000200 0.000500
14 61 19.2 0.001200 0.000300 0.001500
15 64 19.2 0.000600 0.000200 0.000800
16 74 19.2 0.003000 0.000400 0.003400
17 79 19.2 0.001200 0.000400 0.001600
18 86 19.2 0.001900 0.000300 0.002200
19 89 38.4 0.000700 0.000300 0.001000
20 94 38.4 0.001100 0.000400 0.001500
21 96 38.4 0.000300 0.000400 0.000700
22 99 38.4 0.000600 0.000400 0.001000
23 103 38.4 0.000900 0.000500 0.001400
24 113 38.4 0.002600 0.000400 0.003000
25 121 38.4 0.002000 0.000500 0.002500
26 125 38.4 0.000900 0.000500 0.001400
27 132 38.4 0.002500 0.000500 0.003000
28 137 38.4 0.001200 0.000600 0.001800
29 143 38.4 0.001500 0.000600 0.002100
30 146 38.4 0.000600 0.000600 0.001200
31 153 38.4 0.001800 0.000600 0.002400
32 166 38.4 0.003400 0.000600 0.004000
33 171 38.4 0.001200 0.000600 0.001800
34 176 57.6 0.001200 0.000700 0.001900
35 179 57.6 0.000600 0.000800 0.001400
36 188 57.6 0.002400 0.000700 0.003100
37 194 57.6 0.001500 0.000800 0.002300
38 197 57.6 0.000600 0.000800 0.001400
39 203 57.6 0.001400 0.000800 0.002200
40 205 57.6 0.000300 0.000800 0.001100
41 210 57.6 0.001300 0.000800 0.002100
42 216 57.6 0.001500 0.000900 0.002400
43 219 57.6 0.000600 0.000800 0.001400
44 224 57.6 0.001200 0.000900 0.002100
45 230 57.6 0.001500 0.000900 0.002400
46 237 57.6 0.001700 0.000900 0.002600
47 250 57.6 0.003400 0.000900 0.004300
48 253 57.6 0.000600 0.001000 0.001600
49 262 76.8 0.003000 0.001000 0.004000
50 264 76.8 0.000300 0.001000 0.001300
51 273 76.8 0.002300 0.001000 0.003300
52 279 76.8 0.001400 0.001100 0.002500
53 290 76.8 0.002900 0.001100 0.004000
54 295 76.8 0.001300 0.001100 0.002400
55 298 76.8 0.000600 0.001100 0.001700
56 303 76.8 0.001200 0.001100 0.002300
57 308 76.8 0.001200 0.001200 0.002400
58 310 76.8 0.000300 0.001100 0.001400
59 314 76.8 0.000900 0.001200 0.002100
60 319 76.8 0.001100 0.001200 0.002300
61 322 76.8 0.000600 0.001200 0.001800
62 325 76.8 0.000600 0.001200 0.001800
63 333 76.8 0.002000 0.001300 0.003300
64 337 76.8 0.000800 0.001200 0.002000
65 346 96.0 0.002300 0.001300 0.003600
66 349 96.0 0.000600 0.001400 0.002000
67 356 96.0 0.001800 0.001300 0.003100
68 366 96.0 0.002600 0.001400 0.004000
69 371 96.0 0.001200 0.001400 0.002600
70 376 96.0 0.001200 0.001400 0.002600
71 386 96.0 0.002600 0.001500 0.004100
72 392 96.0 0.001400 0.001400 0.002800
73 403 96.0 0.002900 0.001500 0.004400
74 410 96.0 0.001800 0.001500 0.003300
75 421 96.0 0.002900 0.001600 0.004500
76 423 96.0 0.000300 0.001600 0.001900
77 426 96.0 0.000700 0.001600 0.002300
78 430 115.2 0.000900 0.001600 0.002500
79 437 115.2 0.001900 0.001600 0.003500
80 440 115.2 0.000600 0.001700 0.002300
81 447 115.2 0.001800 0.001700 0.003500
82 451 115.2 0.000900 0.001700 0.002600
83 458 115.2 0.001700 0.001800 0.003500
84 463 115.2 0.001200 0.001700 0.002900
85 470 115.2 0.001800 0.001700 0.003500
86 479 115.2 0.002300 0.001800 0.004100
87 486 115.2 0.001800 0.001800 0.003600
88 495 115.2 0.002300 0.001800 0.004100
89 503 115.2 0.002000 0.001800 0.003800
90 510 115.2 0.001800 0.001900 0.003700
91 513 115.2 0.001400 0.001900 0.003300
92 526 134.4 0.003500 0.001900 0.005400
93 528 134.4 0.000400 0.002000 0.002400
94 532 134.4 0.000900 0.001900 0.002800
95 541 134.4 0.002300 0.002000 0.004300
96 547 134.4 0.001500 0.002000 0.003500
97 552 134.4 0.001200 0.002000 0.003200
98 555 134.4 0.000600 0.002000 0.002600
99 562 134.4 0.001800 0.002100 0.003900
100 567 134.4 0.001100 0.002100 0.003200
101 578 134.4 0.002900 0.002100 0.005000
102 582 134.4 0.000800 0.002100 0.002900
103 588 134.4 0.001500 0.002100 0.003600
104 597 134.4 0.002300 0.002200 0.004500
105 599 134.4 0.000400 0.002200 0.002600
106 604 153.6 0.001200 0.002200 0.003400
107 614 153.6 0.002600 0.002300 0.004900
108 622 153.6 0.002000 0.002200 0.004200
109 625 153.6 0.000600 0.002300 0.002900
110 633 153.6 0.002000 0.002300 0.004300
111 644 153.6 0.002900 0.002400 0.005300
112 649 153.6 0.001200 0.002400 0.003600
113 656 153.6 0.001700 0.002400 0.004100
114 660 153.6 0.000900 0.002400 0.003300
115 664 153.6 0.000900 0.002500 0.003400
116 674 153.6 0.002600 0.002500 0.005100
117 676 153.6 0.000300 0.002400 0.002700
118 680 153.6 0.000800 0.002500 0.003300
119 686 172.8 0.001500 0.002500 0.004000
120 692 172.8 0.001500 0.002600 0.004100
121 696 172.8 0.000800 0.002500 0.003300
122 702 172.8 0.001500 0.002600 0.004100
123 707 172.8 0.001200 0.002600 0.003800
124 711 172.8 0.000900 0.002600 0.003500
125 716 172.8 0.001100 0.002600 0.003700
126 720 172.8 0.000900 0.002700 0.003600
127 722 172.8 0.000300 0.002700 0.003000
128 727 172.8 0.001200 0.002700 0.003900
129 730 172.8 0.000600 0.002700 0.003300
130 732 172.8 0.000400 0.002800 0.003200
131 737 172.8 0.001200 0.002700 0.003900
132 740 172.8 0.000600 0.002700 0.003300
133 750 172.8 0.002600 0.002700 0.005300
134 755 172.8 0.001200 0.002800 0.004000
135 762 172.8 0.001800 0.002800 0.004600
136 765 172.8 0.000600 0.002800 0.003400
137 770 172.8 0.001200 0.002900 0.004100
138 772 172.8 0.000300 0.002800 0.003100
139 775 192.0 0.000600 0.002900 0.003500
140 779 192.0 0.000900 0.003400 0.004300
141 789 192.0 0.002600 0.002900 0.005500
142 797 192.0 0.002100 0.002900 0.005000
143 801 192.0 0.000900 0.003200 0.004100
144 808 192.0 0.002300 0.003800 0.006100
145 813 192.0 0.001500 0.003700 0.005200
146 819 192.0 0.001900 0.003800 0.005700
147 822 192.0 0.000800 0.003800 0.004600
148 829 192.0 0.002300 0.003900 0.006200
149 842 192.0 0.004400 0.003900 0.008300
150 847 192.0 0.001500 0.003900 0.005400
151 852 192.0 0.001500 0.004000 0.005500
152 855 192.0 0.000800 0.004000 0.004800
153 864 211.2 0.003000 0.004100 0.007100
154 870 211.2 0.001900 0.004100 0.006000
155 873 211.2 0.000800 0.004600 0.005400
156 879 211.2 0.001400 0.003200 0.004600
157 881 211.2 0.000300 0.003100 0.003400
158 886 211.2 0.001200 0.003200 0.004400
159 892 211.2 0.001400 0.003200 0.004600
160 895 211.2 0.000600 0.003200 0.003800
161 900 211.2 0.001100 0.003200 0.004300
162 906 211.2 0.001500 0.003300 0.004800
163 913 211.2 0.001700 0.003300 0.005000
164 926 211.2 0.003500 0.003300 0.006800
165 929 211.2 0.000600 0.003300 0.003900
166 938 211.2 0.002300 0.003400 0.005700
167 940 211.2 0.000300 0.003400 0.003700
168 949 230.4 0.002300 0.003500 0.005800
169 955 230.4 0.001400 0.003400 0.004800
170 966 230.4 0.002900 0.003500 0.006400
171 971 230.4 0.001200 0.003500 0.004700
172 974 230.4 0.000600 0.003500 0.004100
173 979 230.4 0.001200 0.003600 0.004800
174 984 230.4 0.001200 0.003500 0.004700
175 986 230.4 0.000300 0.003500 0.003800
176 990 230.4 0.000900 0.003500 0.004400
177 995 230.4 0.001200 0.003600 0.004800
178 998 230.4 0.000600 0.003600 0.004200
179 1001 230.4 0.000600 0.003600 0.004200
180 1009 230.4 0.002000 0.003600 0.005600
181 1013 230.4 0.000900 0.003700 0.004600
182 1022 230.4 0.002400 0.003700 0.006100
183 1025 230.4 0.003000 0.003700 0.006700
184 1032 249.6 0.001800 0.003800 0.005600
185 1042 249.6 0.002600 0.003800 0.006400
186 1047 249.6 0.001200 0.003800 0.005000
187 1052 249.6 0.001200 0.003800 0.005000
188 1062 249.6 0.002600 0.003800 0.006400
189 1068 249.6 0.001500 0.003800 0.005300
190 1079 249.6 0.002900 0.003900 0.006800
191 1086 249.6 0.001800 0.003900 0.005700
192 1097 249.6 0.002900 0.003900 0.006800
193 1099 249.6 0.000300 0.004000 0.004300
194 1102 249.6 0.000600 0.004000 0.004600
195 1106 249.6 0.000900 0.004000 0.004900
196 1113 249.6 0.001800 0.004000 0.005800
197 1116 268.8 0.000600 0.004100 0.004700
198 1123 268.8 0.001800 0.004000 0.005800
199 1127 268.8 0.000900 0.004000 0.004900
200 1134 268.8 0.001800 0.004000 0.005800
201 1139 268.8 0.001100 0.004100 0.005200
202 1146 268.8 0.001700 0.004100 0.005800
203 1155 268.8 0.002400 0.004100 0.006500
204 1162 268.8 0.001800 0.004200 0.006000
205 1171 268.8 0.002300 0.004200 0.006500
206 1179 268.8 0.002100 0.004200 0.006300
207 1186 268.8 0.001800 0.004200 0.006000
208 1189 268.8 0.000600 0.004300 0.004900
209 1202 288.0 0.003500 0.004300 0.007800
210 1204 288.0 0.000300 0.004300 0.004600
211 1208 288.0 0.000800 0.004300 0.005100
212 1217 288.0 0.002300 0.004400 0.006700
213 1223 288.0 0.001500 0.004400 0.005900
214 1228 288.0 0.001200 0.004400 0.005600
215 1231 288.0 0.000600 0.004500 0.005100
216 1238 288.0 0.001700 0.004400 0.006100
217 1243 288.0 0.001200 0.004500 0.005700
218 1254 288.0 0.003000 0.004500 0.007500
219 1258 288.0 0.000900 0.004500 0.005400
220 1264 288.0 0.001500 0.004500 0.006000
221 1273 288.0 0.002300 0.004600 0.006900
222 1275 288.0 0.000300 0.004500 0.004800
